# Ionization density [MeV cm-1]	Relative luminous efficiency	Uncertainty on relative luminous efficiency
3.200000000000000000e+01 7.151353100427986220e-01 1.070851543808390843e-01
5.000000000000000000e+01 7.019692879137530150e-01 7.990159740511500186e-02
7.200000000000000000e+01 6.890796221506720887e-01 7.271844653553914684e-02
9.800000000000000000e+01 6.649323616283379090e-01 6.344271392631151141e-02
1.280000000000000000e+02 6.310374701883743054e-01 5.582526933495393640e-02
1.620000000000000000e+02 6.026551609293161471e-01 4.475969425946468155e-02
2.000000000000000000e+02 5.703925172513746311e-01 4.170918639040994275e-02
2.420000000000000000e+02 5.411046319431602747e-01 3.716722621462358739e-02
2.880000000000000000e+02 5.096687664838525089e-01 3.130397076552687841e-02
3.380000000000000000e+02 4.826199944777943007e-01 3.230978121233817751e-02
3.920000000000000000e+02 4.589792109591695479e-01 2.730741589338071471e-02
4.500000000000000000e+02 4.363048106216010358e-01 3.085898738547732459e-02
5.120000000000000000e+02 4.159954478181835946e-01 2.708750461486224975e-02
